bar_index,expected
0,
1,
2,
3,
4,0.5847669999999994
5,0.5795682
6,0.6167441600000005
7,0.5676327280000002
8,0.5451189824000002
9,0.5396739859200006
10,0.5843993887360002
11,0.5220091109888003
12,0.56164048879104
13,0.5626327910328319
14,0.5341006328262659
15,0.4996275062610126
16,0.47127620500880996
17,0.4974191640070476
18,0.5004371312056384
19,0.5334703049645109
20,0.5892334439716087
21,0.5622139551772873
22,0.5062433641418295
23,0.5257738913134641
24,0.6045751130507712
25,0.5046940904406164
26,0.5875862723524932
27,0.6683164178819941
28,0.6176865343055954
29,0.6386480274444758
30,0.6543490219555805
31,0.6168828175644643
32,0.5981836540515714
33,0.601047323241257
34,0.5697046585930059
35,0.5357999268744047
36,0.4852791414995238
37,0.4821071131996194
38,0.42268689055969577
39,0.5385745124477566
40,0.49171460995820465
41,0.5011158879665641
42,0.6040239103732513
43,0.5257537282986008
44,0.51242878263888
45,0.629259026111104
46,0.673050820888883
47,0.7599182567111065
48,0.7233176053688851
49,0.7558566842951078
50,0.7271593474360867
51,0.8003466779488692
52,0.7614197423590954
53,0.8088131938872765
54,0.7528157551098209
55,0.8231482040878568
56,0.854090163270285
57,0.8527191306162283
58,0.8032513044929827
59,0.752956043594386
60,0.7670314348755091
61,0.7296715479004077
62,0.6222732383203267
63,0.5284813906562617
64,0.5164795125250097
65,0.5383758100200071
66,0.5070690480160055
67,0.5760830384128046
68,0.6576386307302439
69,0.7136103045841952
70,0.7869704436673565
71,0.7848531549338852
72,0.812107923947108
73,0.785060539157686
74,0.7696636313261485
75,0.7851805050609182
76,0.7948340040487347
77,0.7810776032389877
78,0.7379676825911903
79,0.7193487460729523
80,0.7161699968583615
81,0.740360797486689
82,0.7591774379893514
83,0.6679959503914814
84,0.6544541603131855
85,0.622531728250548
86,0.580193182600439
87,0.5949683460803511
88,0.6478096768642803
89,0.6373075414914243
90,0.6351058331931394
91,0.6346060665545116
92,0.5945454532436092
93,0.6131805625948873
94,0.6751070500759101
95,0.5994684400607283
96,0.6118399520485824
97,0.6676999616388659
98,0.6096359693110932
99,0.5512483754488746
100,0.6141535003591001
101,0.7301406002872797
102,0.7800554802298235
103,0.7124143841838593
104,0.6594331073470873
105,0.6905088858776698
106,0.6475861087021361
107,0.6466896869617084
108,0.6092731495693671
109,0.6159109196554933
110,0.7285377357243943
111,0.6527635885795154
112,0.7089312708636117
113,0.7499896166908894
114,0.6366028933527116
115,0.5759159146821694
116,0.6079735317457357
117,0.5514476253965881
118,0.5423703003172703
119,0.6360194402538167
