bar_index,expected
0,
1,
2,
3,
4,0.5744485999999995
5,0.5018090799999998
6,0.5415908640000002
7,0.4714348912000002
8,0.4727139129599996
9,0.5917413303679998
10,0.5126312642943996
11,0.5680084114355197
12,0.4837003291484162
13,0.5958642633187334
14,0.6259898106549867
15,0.5906016485239898
16,0.6204195188191919
17,0.5844926150553539
18,0.528097092044283
19,0.6218286736354265
20,0.6071125389083407
21,0.701657631126673
22,0.8425197049013381
23,0.71528316392107
24,0.6197825311368562
25,0.7331784249094853
26,0.7803757399275882
27,0.7570653919420702
28,0.7792157135536559
29,0.756278970842925
30,0.7294245766743399
31,0.7068704613394721
32,0.7027583690715774
33,0.6991278952572617
34,0.7870067162058098
35,0.7104191729646477
36,0.6498779383717184
37,0.6514553506973749
38,0.6411956805579005
39,0.6919967444463204
40,0.662356195557056
41,0.7015289564456447
42,0.6809681651565161
43,0.718819332125213
44,0.7257222657001708
45,0.7850652125601367
46,0.6742915700481097
47,0.6678656560384876
48,0.7189071248307906
49,0.6356970998646323
50,0.6662582798917063
51,0.7669580239133651
52,0.6976186191306921
53,0.693272695304554
54,0.6510719562436437
55,0.5815087649949151
56,0.5430618119959314
57,0.47547244959674567
58,0.5044293596773963
59,0.509425687741917
60,0.48992195019353346
61,0.4465849601548264
62,0.39607896812386156
63,0.4647889744990894
64,0.5326343795992716
65,0.5045993036794171
66,0.5688748429435333
67,0.6541302743548261
68,0.777135819483861
69,0.732001055587089
70,0.7094666444696712
71,0.6875943155757368
72,0.7313652524605891
73,0.6951090019684709
74,0.7156344015747769
75,0.7360003212598217
76,0.671204257007857
77,0.6624348056062856
78,0.6808370444850288
79,0.5974774355880231
80,0.6526041484704188
81,0.6276325187763352
82,0.7135446150210678
83,0.7419054920168543
84,0.6847313936134835
85,0.617838314890787
86,0.5146326519126296
87,0.5685927215301037
88,0.5738757772240829
89,0.5517000217792666
90,0.4985336174234134
91,0.6227344939387311
92,0.5611381951509848
93,0.5866585561207884
94,0.596288844896631
95,0.5958508759173048
96,0.6150883007338439
97,0.5798832405870753
98,0.49048999246966074
99,0.49399339397572917
100,0.5117847151805827
101,0.5370029721444658
102,0.5556977777155725
103,0.571146022172458
104,0.5968524177379668
105,0.5469221341903732
106,0.48547590735229795
107,0.4443319258818382
108,0.46982854070547064
109,0.461087832564377
110,0.49672226605150166
111,0.5973522128412012
112,0.6524273702729614
113,0.6813928962183691
114,0.7751559169746951
115,0.7322347335797559
116,0.643267786863805
117,0.6673584294910434
118,0.7118049435928346
119,0.6951677548742679
