bar_index,expected
0,
1,
2,
3,
4,0.5645289999999996
5,0.6693762000000001
6,0.7229513600000003
7,0.7181006880000003
8,0.7233121504
9,0.7141299203199999
10,0.7528467362559996
11,0.6954133890048002
12,0.6914195112038399
13,0.6074516089630719
14,0.6614180871704575
15,0.6715530697363665
16,0.6950946557890931
17,0.7242983246312745
18,0.7888832597050194
19,0.8762446077640156
20,0.9691822862112124
21,0.9129590289689699
22,0.8855510231751762
23,0.7829712185401407
24,0.7022587748321131
25,0.6568804198656901
26,0.6028589358925525
27,0.6848277487140424
28,0.707435598971234
29,0.6699638791769866
30,0.7573669033415891
31,0.7194609226732714
32,0.8000119381386167
33,0.7620207505108934
34,0.7166246004087151
35,0.6883666803269719
36,0.7449785442615777
37,0.8577974354092625
38,0.8063719483274102
39,0.9597025586619278
40,0.8151478469295423
41,0.8326940775436343
42,0.8642500620349072
43,0.8567058496279258
44,0.7514512797023405
45,0.8244074237618717
46,0.9766895390094973
47,0.9186912312075979
48,0.9997925849660788
49,0.9149064679728636
50,0.8773505743782908
51,0.995737059502632
52,1.0206172476021058
53,0.9985015980816841
54,0.9718802784653473
55,0.9878464227722781
56,1.0449633382178223
57,1.1490588705742577
58,1.177950896459406
59,1.1445711171675255
60,1.1508602937340207
61,1.207954234987216
62,1.2387253879897733
63,1.2042733103918188
64,1.1941254483134551
65,1.0778867586507634
66,1.2528460069206109
67,1.2390006055364888
68,1.140111684429191
69,1.2176239475433521
70,1.093517758034681
71,1.2276076064277444
72,1.3088718851421945
73,1.2085459081137546
74,1.3747985264910048
75,1.2360750211928029
76,1.1875264169542428
77,1.2879567335633944
78,1.4163929868507155
79,1.5466829894805731
80,1.4676213915844574
81,1.3783693132675672
82,1.3941202506140538
83,1.2970396004912437
84,1.3237772803929952
85,1.2640462243143955
86,1.2841617794515163
87,1.2788830235612128
88,1.3185454188489705
89,1.3755089350791767
90,1.3050777480633413
91,1.2946093984506728
92,1.3259775187605385
93,1.319874415008431
94,1.3306125320067446
95,1.4858512256053955
96,1.495460380484317
97,1.3010683043874534
98,1.3474810435099616
99,1.4228936348079695
100,1.354624107846376
101,1.343550086277102
102,1.1968332690216816
103,1.2919886152173465
104,1.341218892173877
105,1.5160931137391014
106,1.4956780909912808
107,1.4403054727930245
108,1.3395981782344206
109,1.2516163425875368
110,1.2129382740700305
111,1.3529844192560252
112,1.4792647354048203
113,1.6319775883238563
114,1.8627756706590843
115,1.8678719365272667
116,1.8075633492218124
117,1.7439088793774502
118,1.4914629035019602
119,1.391007922801568
